x,y,z,tx,ty,tz,qx,qy,qz,nx,ny,nz,s,kappa,psi,theta,phi
-3.99630999565,1.72619998455,1,0.809260118531,-0.574200669984,-0.124063093407,0.578195369037,0.815885346196,-0.00460620091889,0,0,1,0,0.321990514259,-0.0197894574571,0.0622703072937,-0.615242980162
-3.91146131469,1.66894392105,0.987719337747,0.840669886108,-0.530744924246,-0.107628843613,0.515130467977,0.722393241035,0.461290154098,0,0,1,0.102359930973,0.801789950606,-0.0155770455026,0.0539679179207,-0.561877667412
-3.82133285936,1.61676714062,0.979090606081,0.881550953239,-0.468891726428,-0.0548494824954,0.38611664358,0.649278753396,0.655248836656,0,0,1,0.206501924788,0.788008695874,-0.00684110994619,0.0274446400652,-0.488554279107
-3.72939947919,1.57084682435,0.975723747047,0.903957626394,-0.427343960572,-0.0154191130335,0.362629677129,0.746960982779,0.557269241455,0,0,1,0.309265837894,0.440326994195,-0.00173054601049,0.00770999393136,-0.441589108272
-3.63667444871,1.52892220122,0.975034985046,0.91739082732,-0.397984838822,-0.00146219629943,0.391395660407,0.90152409186,0.184563671426,0,0,1,0.41102833246,0.268341329064,-0.000151751106596,0.000731098520555,-0.409319474474
-3.54237219789,1.48927818776,0.975000047387,0.925581924312,-0.378547356849,-2.97326114279e-06,0.378546720472,0.925580353855,0.0018409175754,0,0,1,0.513324775773,0.176754639382,-2.92254547214e-07,1.4866305714e-06,-0.388226354133
-3.44774753084,1.45179328011,0.975000023842,0.934994861809,-0.354661258655,0,0.354661258655,0.934994861809,0,0,0,1,0.615103682793,0.38919923163,-0,-0,-0.362551750166
-3.3531804361,1.41898979982,0.975000023842,0.9573710021,-0.288861150619,0,0.288861150619,0.9573710021,0,0,0,1,0.715198656333,1.13184098827,-0,-0,-0.293037064822
-3.25460318052,1.39768040691,0.975000023842,0.993938728423,-0.109935454431,0,0.109935454431,0.993938728423,0,0,0,1,0.816052835942,2.38587152118,-0,-0,-0.110158110572
-3.15407040433,1.39826175325,0.975000023842,0.994109149123,0.108383576382,0,-0.108383576382,0.994109149123,0,0,0,1,0.916587292976,1.68606362063,0,-0,0.108596902965
-3.05535726819,1.41586244397,0.975000023842,0.973798672149,0.227411842525,0,-0.227411842525,0.973798672149,0,0,0,1,1.01685726635,0.78334285994,0,-0,0.229419059162
-2.95784071316,1.44108062164,0.975000023842,0.966911141338,0.255113395879,0,0.255113395879,-0.966911141338,0,0,0,1,1.11758181644,0.328987961063,0,-0,0.257964977815
-2.85882215444,1.46354783509,0.975000023842,0.984307821189,0.176459947711,0,0.176459947711,-0.984307821189,0,0,0,1,1.21911728143,0.964708758716,0,-0,0.17738879427
-2.75888996566,1.47698618405,0.975000023842,0.995459887548,0.0951819955867,0,0.0951819955867,-0.995459887548,0,0,0,1,1.3199489807,0.663134675989,0,-0,0.0953263033446
-2.65862020927,1.48353567832,0.975000023842,0.999277908586,0.0379955446447,0,0.0379955446447,-0.999277908586,0,0,0,1,1.42043241178,0.481569980375,0,-0,0.0380046927059
-2.55846987593,1.48540742553,0.975000023842,0.99998845128,0.00480596580431,0,0.00480596580431,-0.99998845128,0,0,0,1,1.52060023448,0.172704920852,0,-0,0.00480598430532
-2.45821705398,1.48521396446,0.975000023842,0.999962145454,-0.00870101488431,0,-0.00870101488431,-0.999962145454,0,0,0,1,1.6208532431,0.169415134308,-0,-0,-0.00870112467696
-2.35702715261,1.48299349603,0.975000023842,0.999137196665,-0.0415314608521,0,-0.0415314608521,-0.999137196665,0,0,0,1,1.72206750404,0.553540386116,-0,-0,-0.0415434094702
-2.25725716077,1.47474156939,0.975000023842,0.990411424747,-0.138149229934,0,-0.138149229934,-0.990411424747,0,0,0,1,1.82217817063,1.42548768965,-0,-0,-0.138592481892
-2.15829691025,1.45289949645,0.975000023842,0.95676187311,-0.290872339977,0,-0.290872339977,-0.95676187311,0,0,0,1,1.92352020205,1.41200677535,-0,-0,-0.29513847444
-2.06388544673,1.41758217254,0.975000023842,0.915420692644,-0.402498391897,0,-0.402498391897,-0.915420692644,0,0,0,1,2.02432118327,1.03217610917,-0,-0,-0.414244441986
-1.97372757963,1.3721608236,0.975000023842,0.867328804307,-0.497735617793,0,-0.497735617793,-0.867328804307,0,0,0,1,2.12527434042,1.12842755739,-0,-0,-0.52098605985
-1.88917011554,1.3169932845,0.975000023842,0.806618120129,-0.591072929747,0,-0.591072929747,-0.806618120129,0,0,0,1,2.22623681912,0.967586392853,-0,-0,-0.632388351789
-1.81034371372,1.25394469319,0.975000023842,0.757275954674,-0.653095037856,0,-0.653095037856,-0.757275954674,0,0,0,1,2.32717604088,0.665213584024,-0,-0,-0.711664337637
-1.73632201218,1.18555133586,0.975000023842,0.708794716202,-0.705414807248,0,-0.705414807248,-0.708794716202,0,0,0,1,2.42795730712,0.837118513932,-0,-0,-0.783008204581
-1.66869081806,1.11105805946,0.975000023842,0.627280986448,-0.778793017458,0,-0.778793017458,-0.627280986448,0,0,0,1,2.52857155386,1.30729735049,-0,-0,-0.892739362496
-1.61048994416,1.02852146512,0.975000023842,0.528281840031,-0.849069076986,0,-0.849069076986,-0.528281840031,0,0,0,1,2.62956477704,0.966610737276,-0,-0,-1.01422061924
-1.56098451492,0.941347808358,0.975000023842,0.464927600138,-0.88534870341,0,-0.88534870341,-0.464927600138,0,0,0,1,2.72981463468,0.535643089498,-0,-0,-1.08724349287
-1.51608542824,0.851167917822,0.975000023842,0.431734302968,-0.902000826851,0,-0.902000826851,-0.431734302968,0,0,0,1,2.83055360748,0.164610916754,-0,-0,-1.1243817038
-1.47226402075,0.759805067186,0.975000023842,0.440443211792,-0.897780472714,0,0.897780472714,0.440443211792,0,0,0,1,2.93188221268,0.287194087592,-0,-0,-1.11470403813
-1.4267062768,0.670316636531,0.975000023842,0.466006540587,-0.88478127474,0,0.88478127474,0.466006540587,0,0,0,1,3.03229977715,0.246065760372,-0,-0,-1.08602444079
-1.37871327946,0.581588831067,0.975000023842,0.484496893082,-0.874792981564,0,0.874792981564,0.484496893082,0,0,0,1,3.13317569725,0.178816765359,-0,-0,-1.06500836617
-1.32930563305,0.493987320344,0.975000023842,0.496482626925,-0.868046658401,0,0.868046658401,0.496482626925,0,0,0,1,3.23374975059,0.0744644730349,-0,-0,-1.05125432407
-1.27926825116,0.406683386904,0.975000023842,0.495518736437,-0.868597249501,0,-0.868597249501,-0.495518736437,0,0,0,1,3.33437636924,0.098884572068,-0,-0,-1.05236438513
-1.23006599533,0.318641337507,0.975000023842,0.47591093825,-0.879493478574,0,-0.879493478574,-0.47591093825,0,0,0,1,3.43523401368,0.391017880653,-0,-0,-1.07479683171
-1.18508879363,0.229267475176,0.975000023842,0.411122063827,-0.9115803029,0,-0.9115803029,-0.411122063827,0,0,0,1,3.53528717925,1.15183344682,-0,-0,-1.14711170617
-1.15037443755,0.135033554081,0.975000023842,0.272064594852,-0.962278990848,0,-0.962278990848,-0.272064594852,0,0,0,1,3.63571186945,1.52769658827,-0,-0,-1.29525841776
-1.12962036784,0.0371917664907,0.975000023842,0.1523911942,-0.988320253729,0,-0.988320253729,-0.1523911942,0,0,0,1,3.73573060174,0.924554626393,-0,-0,-1.41780905
-1.11824303438,-0.0622823007369,0.975000023842,0.0811736965466,-0.996699970397,0,-0.996699970397,-0.0811736965466,0,0,0,1,3.83585319543,0.522976501831,-0,-0,-1.48953322035
-1.11176800002,-0.163513118239,0.975000023842,0.057194488133,-0.99836305547,0,0.99836305547,0.057194488133,0,0,0,1,3.93729088311,0.0936249258161,-0,-0,-1.51357061015
-1.10476377917,-0.264420788245,0.975000023842,0.0856720844171,-0.996323388239,0,0.996323388239,0.0856720844171,0,0,0,1,4.03844135012,0.369592737142,-0,-0,-1.48501909339
-1.09408282609,-0.364878639008,0.975000023842,0.128141879181,-0.991755846365,0,0.991755846365,0.128141879181,0,0,0,1,4.13946541922,0.521360937274,-0,-0,-1.44230114181
-1.07778246141,-0.464453295215,0.975000023842,0.203855470954,-0.979000994362,0,0.979000994362,0.203855470954,0,0,0,1,4.24036543928,1.0599151852,-0,-0,-1.36550184066
-1.05127705979,-0.561768695691,0.975000023842,0.323488488765,-0.946232105583,0,0.946232105583,0.323488488765,0,0,0,1,4.34122585513,1.23427703077,-0,-0,-1.24138243587
-1.01308880731,-0.655173826269,0.975000023842,0.430441616147,-0.902618421643,0,0.902618421643,0.430441616147,0,0,0,1,4.44213601837,1.14441805733,-0,-0,-1.12581434573
-0.96403068668,-0.742662415175,0.975000023842,0.556818675526,-0.830634072613,0,0.830634072613,0.556818675526,0,0,0,1,4.54244031733,1.95199910331,-0,-0,-0.980245460695
-0.898012086084,-0.818916379361,0.975000023842,0.755579023832,-0.655057507968,0,0.655057507968,0.755579023832,0,0,0,1,4.64330221637,3.02703450768,-0,-0,-0.714258729089
-0.813574233503,-0.873882773172,0.975000023842,0.894876223175,-0.446314401734,0,0.446314401734,0.894876223175,0,0,0,1,4.74405466248,1.76100883508,-0,-0,-0.462642532184
-0.720260100259,-0.912970647702,0.975000023842,0.93837541835,-0.345617670607,0,0.345617670607,0.93837541835,0,0,0,1,4.84522476379,0.419569300825,-0,-0,-0.352896939376
-0.625615006998,-0.948783244354,0.975000023842,0.918527925401,-0.395356105629,0,-0.395356105629,-0.918527925401,0,0,0,1,4.94641881379,1.67772111209,-0,-0,-0.406455510399
-0.538047826199,-0.99880233717,0.975000023842,0.800155357719,-0.599792800486,0,-0.599792800486,-0.800155357719,0,0,0,1,5.047264839,2.38888102548,-0,-0,-0.643242134548
-0.464269481405,-1.06720655893,0.975000023842,0.669560212168,-0.742757781703,0,-0.742757781703,-0.669560212168,0,0,0,1,5.14787488678,1.53356121971,-0,-0,-0.837179798755
-0.402493551243,-1.14608821408,0.975000023842,0.566549413463,-0.8240277678,0,-0.8240277678,-0.566549413463,0,0,0,1,5.24806760641,1.07853015045,-0,-0,-0.968483993154
-0.348737630725,-1.23164083812,0.975000023842,0.509308179925,-0.860584207304,0,-0.860584207304,-0.509308179925,0,0,0,1,5.34910695751,0.243029436343,-0,-0,-1.03641562378
-0.297462023383,-1.31892830653,0.975000023842,0.509511560008,-0.860463811103,0,0.860463811103,0.509511560008,0,0,0,1,5.45034079597,0.175019089579,-0,-0,-1.03617927932
-0.24473206415,-1.40506694561,0.975000023842,0.540799566507,-0.841151489844,0,0.841151489844,0.540799566507,0,0,0,1,5.5513373986,0.624813753363,-0,-0,-0.9994089457
-0.186521956718,-1.48708526249,0.975000023842,0.627736134237,-0.778426198026,0,0.778426198026,0.627736134237,0,0,0,1,5.65191284745,1.51302319611,-0,-0,-0.892154797688
-0.117375851241,-1.55996974011,0.975000023842,0.743451043152,-0.668790360604,0,0.668790360604,0.743451043152,0,0,0,1,5.75237841857,1.47702660536,-0,-0,-0.732580534331
-0.0377440178659,-1.62194588816,0.975000023842,0.830951161867,-0.55634536629,0,0.55634536629,0.830951161867,0,0,0,1,5.85328566219,1.49948369018,-0,-0,-0.589981158073
0.0500150648087,-1.66997531884,0.975000023842,0.923922761848,-0.382579050836,0,0.382579050836,0.923922761848,0,0,0,1,5.95332806722,2.6101678504,-0,-0,-0.392586102589
0.147732501045,-1.69428647768,0.975000023842,0.995989113993,-0.0894744924932,0,0.0894744924932,0.995989113993,0,0,0,1,6.05402429251,2.91410221,-0,-0,-0.0895943087397
0.248632835704,-1.69039065501,0.975000023842,0.988914224492,0.148487900509,0,-0.148487900509,0.988914224492,0,0,0,1,6.15499980919,1.90436092459,0,-0,0.149039046414
0.346898603912,-1.66628229846,0.975000023842,0.945704516667,0.325027640602,0,-0.325027640602,0.945704516667,0,0,0,1,6.25617971854,1.82121380187,0,-0,0.331040955467
0.438912474578,-1.62469329311,0.975000023842,0.869998191094,0.493054913264,0,-0.493054913264,0.869998191094,0,0,0,1,6.35715594228,1.66279312941,0,-0,0.515597675031
0.523101546003,-1.5686448537,0.975000023842,0.797515094487,0.603298992263,0,-0.603298992263,0.797515094487,0,0,0,1,6.45829558489,1.00514671432,0,-0,0.647631257653
0.600465921961,-1.50419883829,0.975000023842,0.738104553791,0.674686347626,0,-0.674686347626,0.738104553791,0,0,0,1,6.5589858802,0.94741434014,0,-0,0.740539676613
0.671326288377,-1.43199457162,0.975000023842,0.655109544972,0.755533906643,0,-0.755533906643,0.655109544972,0,0,0,1,6.66015231561,1.36223322038,0,-0,0.856468725284
0.732039032188,-1.35122330671,0.975000023842,0.54656572331,0.837416210795,0,-0.837416210795,0.54656572331,0,0,0,1,6.76119703095,1.17934616101,0,-0,0.992538642977
0.782378396357,-1.26450301001,0.975000023842,0.460495196749,0.887662195754,0,-0.887662195754,0.460495196749,0,0,0,1,6.86146896842,0.892089193493,0,-0,1.09224334273
0.824418833525,-1.17317210578,0.975000023842,0.370548950023,0.928812938991,0,-0.928812938991,0.370548950023,0,0,0,1,6.96201116068,1.16207275601,0,-0,1.1911963525
0.855667220419,-1.07691518466,0.975000023842,0.242053652316,0.970262866135,0,-0.970262866135,0.242053652316,0,0,0,1,7.0632132187,1.35571375595,0,-0,1.32631443895
0.874155283154,-0.97775799337,0.975000023842,0.132928635119,0.991125611598,0,-0.991125611598,0.132928635119,0,0,0,1,7.16407925386,0.838565495699,0,-0,1.4374730704
0.883912199953,-0.87727621193,0.975000023842,0.0646481481603,0.99790812049,0,-0.99790812049,0.0646481481603,0,0,0,1,7.26503362883,0.56963342514,0,-0,1.50610306217
0.88784323668,-0.776665540009,0.975000023842,0.0173343100276,0.99984974956,0,-0.99984974956,0.0173343100276,0,0,0,1,7.36572106774,0.329729704986,0,-0,1.55346114855
0.888524008458,-0.675947013513,0.975000023842,0.00118231926959,0.99999930106,0,-0.99999930106,0.00118231926959,0,0,0,1,7.46644189493,0.0403990796636,0,-0,1.56961400725
0.88855467989,-0.574388737664,0.975000023842,1.31226752858e-05,0.999999999914,5.28347684683e-13,-0.999999999914,1.31226752362e-05,6.37830540893e-07,0,0,1,7.56800017541,0.000786456242483,-2.64170375696e-13,-2.64173842341e-13,1.57078320412
0.888554890432,-0.473857695066,0.975001317418,1.50880039362e-06,0.999999994912,0.000100867445204,0.0149563143394,-0.000100878729093,0.999888142986,0,0,1,7.66853121801,0.00699445980326,-5.04336465288e-05,-5.04337228156e-05,1.57079481418
0.888559964873,-0.373694401137,0.975339508386,0.000202254190182,0.999909838378,0.0134266230824,0.015202777467,-0.0134281462053,0.999794259059,1.12647011944e-12,-1.13575919503e-11,1,7.76869451207,0.446785083903,-0.00671200416615,-0.00671381576243,1.57052645912
0.888659184778,-0.273103892753,0.981608656114,0.00233730154988,0.989848663767,0.142106157007,0.0178378911659,-0.142125204302,0.98968794877,2.68619891955e-12,-9.93788818598e-12,1,7.86928506939,2.28342380511,-0.0709433476783,-0.0716552849014,1.56080275519
0.889244604343,-0.171806368529,1.01257790216,0.00968830346207,0.890946843569,0.454004249662,0.029087142847,-0.454084529678,0.890483676452,3.98597127527e-12,-4.96893455201e-12,1,7.97058428523,3.35317608123,-0.225689089936,-0.248366063614,1.47429929241
0.8913959747,-0.0715073665717,1.08657323507,0.026419775125,0.738533097037,0.673699384046,0.300859582951,-0.64856228916,0.699178423885,7.19891984566e-12,1.00523218222e-11,1,8.07090635751,0.60445013831,-0.323193191105,-0.415677320068,1.31614698187
0.896956421162,0.0293554072798,1.17209028668,0.0609346504382,0.823270095268,0.564369842049,0.139916726273,0.552792635918,-0.821488655663,6.90805355627e-12,7.78741134078e-12,1,8.17192228554,2.3203270365,-0.263291294757,-0.323602717323,1.36307102387
0.905794947961,0.129147282332,1.22386822585,0.0931686493269,0.921620586499,0.376742746875,0.289928509576,0.33687760599,-0.895798491804,8.9390847155e-12,3.00839943235e-11,1,8.27210480837,0.72477963339,-0.171145416566,-0.199329825062,1.41807258163
0.916841509388,0.228701360276,1.26630277577,0.106986770352,0.892371162448,0.438437611755,0.0429687028544,-0.444706390751,0.894645134453,9.96028346606e-12,1.64465611269e-11,1,8.37226987691,1.30848402009,-0.19569534421,-0.236692196359,1.38027269938
0.929346202323,0.327957946255,1.32005735272,0.114344600026,0.878966342357,0.462972441349,0.0874719708541,0.455311205971,-0.886025033525,7.41435558782e-12,1.90268131112e-11,1,8.47231105446,1.19346213547,-0.204635471247,-0.252144870154,1.36174267409
0.942480781926,0.42808672683,1.36161196407,0.124810058613,0.94834070412,0.291671661596,0.0392897351851,0.289015719639,-0.956517762778,7.02083486834e-12,2.53088869306e-11,1,8.57329763714,1.40362406195,-0.128347043303,-0.150662134358,1.41066315046
0.955693429029,0.528453315984,1.38855153219,0.126034515508,0.957327761078,0.260074717669,-0.0339404037504,-0.257850553228,0.96558849475,2.80473588148e-13,2.94868157669e-11,1,8.67453017273,0.741460895367,-0.114365840357,-0.133429592113,1.41684224919
0.968937916835,0.629055212569,1.42151690578,0.122323694432,0.929140848095,0.348904282262,-0.0455409907734,-0.345919378382,0.937158365389,-3.45922335915e-12,1.933879272e-11,1,8.7760001587,0.273306258883,-0.153704838114,-0.182866284813,1.39713415278
0.982180502448,0.729642656031,1.45716569927,0.124530252461,0.945901429015,0.299604243642,0.0391057853082,0.297041142544,-0.954063570833,-7.72715051667e-12,6.18456544657e-12,1,8.87745556692,0.474106038583,-0.131853394321,-0.155045014855,1.40892721479
0.995304570027,0.829329878244,1.4907146377,0.120829870413,0.917794294478,0.378224504018,-0.0493681610534,-0.374988746649,0.92571389995,-1.99840166117e-12,-3.45608507091e-11,1,8.97800298569,2.11731833485,-0.16671665281,-0.199948169746,1.38902374401
1.00851871985,0.929701336887,1.55059213745,0.101968208068,0.774525522099,0.624269733497,-0.081483354493,-0.618929045288,0.781208870815,5.94692958072e-12,-4.52597750944e-11,1,9.07924054525,1.85173772557,-0.274525882247,-0.368116911471,1.2767003433
1.0217582147,1.03026526188,1.64057494634,0.0997987634489,0.758046372102,0.644519902375,0.084127275904,0.639005873217,-0.764587532885,5.26074756674e-12,-2.98373409313e-11,1,9.18067223277,1.47128421884,-0.282958471399,-0.384868765693,1.26245158115
1.03483430692,1.1295879366,1.70588774631,0.117782345786,0.894644505309,0.430973929771,0.0562536341411,0.427286855389,-0.902364378651,1.07239278221e-11,-7.12564104943e-11,1,9.28085196077,1.87535102715,-0.190133101496,-0.231879197064,1.37214782704
1.04802153598,1.22975474963,1.74800878125,0.120251018444,0.913396088481,0.388905230243,-0.0507630734752,-0.385577992736,0.921277765871,1.53210708009e-11,-1.06538805555e-10,1,9.38188311162,0.984460041118,-0.171458203598,-0.206282544614,1.38585164641
1.06118493141,1.32974057889,1.79845811906,0.114006787155,0.865966974008,0.486932903396,-0.0635596010088,-0.482766848005,0.873439378313,7.25989017167e-12,-5.73920772018e-11,1,9.48273171614,0.0205554113379,-0.214924309763,-0.26777262006,1.35060471885
1.07428846823,1.42927174016,1.84784097124,0.121790821751,0.925092076678,0.359682701008,0.0469484566503,0.356605507281,-0.933074677931,3.31047971154e-12,-5.89621407254e-11,1,9.58312172929,1.88745549122,-0.158487065745,-0.18909546451,1.39425188407
1.08745156169,1.52925522668,1.87806649034,0.126543400328,0.961191213223,0.245149381922,0.0319948425586,0.243052565341,-0.969485317336,7.72714791458e-12,-6.37158173444e-11,1,9.68396797168,0.0935252474729,-0.107771498412,-0.125405330398,1.41949580971
1.10070675193,1.62994133742,1.9061868134,0.124609520535,0.946689454456,0.297071614623,-0.0426151282654,-0.294022489344,0.954848012305,2.27696472788e-11,-3.41111999758e-11,1,9.7855228483,0.329669693302,-0.130735364421,-0.153643132651,1.40949872563
1.11381202781,1.72970489781,1.93519140981,0.126282666941,0.96510293765,0.229410130052,0.0175231858172,0.229055195256,-0.973255698922,7.788639525e-12,8.78557556566e-12,1,9.88614350343,1.18912757855,-0.10090295805,-0.117017768052,1.42287909141
1.126880195,1.83039831224,1.95330030596,0.126331627276,0.98347424758,0.129687024398,-0.0246848100758,0.133810655664,-0.990699434027,1.89095961112e-12,2.79999331013e-12,1,9.9876813816,0.729531447427,-0.0570904172151,-0.0652549571411,1.43744430631
1.13947631609,1.92990661783,1.96335055836,0.123073732661,0.989551625164,0.0751028459064,-0.115914689557,0.0894942979625,-0.989219164481,-2.1316277736e-12,2.17547594522e-12,1,10.0879837502,0.402846251916,-0.0331789436006,-0.0376311606265,1.44518468127
1.15158273083,2.02978299407,1.96920947277,0.116477888717,0.992227712347,0.0437843384174,-0.344446844991,0.0817044980457,-0.93524368267,-0.00256251613609,0.00329104228877,0.999991238117,10.1885911844,0.257800312949,-0.0237236808432,-0.0204264476142,1.45320775701
1.16268160098,2.12928956738,1.97254413937,0.103518034948,0.99433419402,0.02415630441,-0.756497415925,0.0944788465185,-0.647136312735,-0.00195082917344,-0.00341652729549,0.999992251396,10.2887148232,0.244957617906,-0.0108499506584,-0.0138807881971,1.466894434
