x,y,z,tx,ty,tz,qx,qy,qz,nx,ny,nz,s,kappa,psi,theta,phi
7.89286994934,3.99590992928,1,0.99079243277,-0.121654008524,-0.0594193350271,0.121838739881,0.992549773827,-0.000517628711986,0,0,1,0,0.380428595328,-0.00181752088152,0.0297338204612,-0.122091902157
7.99326448041,3.9873309769,0.993999987397,0.997306175765,-0.0429979283968,-0.0594270135101,0.0430749334857,0.999071844207,1.47671139365e-05,0,0,1,0.100760410338,0.843228872723,-0.000640378796607,0.0297376044959,-0.0430587936887
8.09378887823,3.98738846876,0.988013701912,0.997229881822,0.044734672033,-0.0594253474466,-0.0448138687748,0.998995353926,7.7072163596e-09,0,0,1,0.201284824607,0.869686621038,0.000666251300304,0.02973677019,0.0447991358973
8.19451447337,3.99637401507,0.981991683841,0.989401471911,0.132489076765,-0.059425347438,-0.132723632278,0.991153084763,-5.42127099814e-14,0,0,1,0.302410417598,0.869682785604,0.00198098365726,0.0297368478477,0.133027974128
8.29301220836,4.01398863855,0.976113808514,0.974230454733,0.220144967685,-0.0491041166597,-0.121191277532,0.694510470713,0.709202284486,0,0,1,0.402470793166,1.3891599963,0.00273986633767,0.0245657791635,0.222134640557
8.38965477526,4.04011298142,0.975000023842,0.952980060056,0.303033009978,0,-0.303033009978,0.952980060056,0,0,0,1,0.502582066393,0.873656574372,0,-0,0.307873708905
8.48457923953,4.07498053884,0.975000023842,0.922548225623,0.385881810143,0,-0.385881810143,0.922548225623,0,0,0,1,0.603707733154,0.872763753953,0,-0,0.396163473484
8.57605955219,4.11808202326,0.975000023842,0.884930812285,0.465722511233,0,-0.465722511233,0.884930812285,0,0,0,1,0.704833326171,0.872763753953,0,-0,0.484450896675
8.66338318962,4.16908170868,0.975000023842,0.840420134105,0.541935418838,0,-0.541935418838,0.840420134105,0,0,0,1,0.805958919213,0.87276634798,0,-0,0.572738322253
8.74559900368,4.22730776132,0.975000023842,0.794843586571,0.606814364437,0,-0.606814364437,0.794843586571,0,0,0,1,0.906704704666,0.537507014659,0,-0,0.652046552404
8.82470092448,4.29007175005,0.975000023842,0.773825465635,0.63339888596,0,-0.63339888596,0.773825465635,0,0,0,1,1.00768208905,0.29089196562,0,-0,0.685937674101
8.90203370859,4.35529452909,0.975000023842,0.754852683236,0.655894371535,0,-0.655894371535,0.754852683236,0,0,0,1,1.10884715418,0.290891965621,0,-0,0.715366840733
8.9774138321,4.42276457713,0.975000023842,0.735226188341,0.677821843833,0,-0.677821843833,0.735226188341,0,0,0,1,1.21001221931,0.29089196562,0,-0,0.744796007366
9.05043518741,4.49210857102,0.975000023842,0.714310304931,0.699829113619,0,-0.699829113619,0.714310304931,0,0,0,1,1.31071330083,0.33999713954,0,-0,0.775158235869
9.11987740748,4.56544228094,0.975000023842,0.640344345773,0.768087962955,0,-0.768087962955,0.640344345773,0,0,0,1,1.41170862221,1.45491119566,0,-0,0.875849829358
9.17870199299,4.647601277,0.975000023842,0.520811015033,0.853672001779,0,-0.853672001779,0.520811015033,0,0,0,1,1.51275530693,1.45490243021,0,-0,1.02299561992
9.22484512459,4.73749701591,0.975000023842,0.390021486036,0.92080575608,0,-0.92080575608,0.390021486036,0,0,0,1,1.61380199152,1.45490243022,0,-0,1.17014140026
9.25730952309,4.83318663079,0.975000023842,0.25080045373,0.968038807285,0,-0.968038807285,0.25080045373,0,0,0,1,1.71484871124,1.45578526302,0,-0,1.31728927825
9.27610895137,4.93301272019,0.975000023842,0.150101665476,0.988670566984,0,0.988670566984,-0.150101665476,0,0,0,1,1.81642954915,0.340505404808,0,-0,1.42012522433
9.29501164874,5.03127341255,0.975000023842,0.231298026671,0.972882944068,0,0.972882944068,-0.231298026671,0,0,0,1,1.91649190786,0.872764919188,0,-0,1.33738464865
9.32272061494,5.12852874007,0.975000023842,0.316179064736,0.948699530422,0,0.948699530422,-0.316179064736,0,0,0,1,2.01761750076,0.872764919187,0,-0,1.24909710762
9.35889694317,5.22296209655,0.975000023842,0.398597185468,0.917126100238,0,0.917126100238,-0.398597185468,0,0,0,1,2.11874309365,0.872764919188,0,-0,1.16080956658
9.40298396315,5.31321291307,0.975000023842,0.479331822726,0.877633752611,0,0.877633752611,-0.479331822726,0,0,0,1,2.21918648674,0.788135700026,0,-0,1.07090311235
9.45514486889,5.39997331555,0.975000023842,0.553086231186,0.833124012901,0,0.833124012901,-0.553086231186,0,0,0,1,2.32041952249,0.872764329253,0,-0,0.984732216445
9.51473946457,5.48167319142,0.975000023842,0.624390968551,0.781111975578,0,0.781111975578,-0.624390968551,0,0,0,1,2.42154511545,0.872764329253,0,-0,0.896444735071
9.58130566001,5.55780023771,0.975000023842,0.69083193904,0.723015374665,0,0.723015374665,-0.69083193904,0,0,0,1,2.5226707084,0.872764329253,0,-0,0.808157253697
9.65432613291,5.62776238525,0.975000023842,0.751911077258,0.659264538631,0,0.659264538631,-0.751911077258,0,0,0,1,2.62379781432,0.880154635588,0,-0,0.719840218132
9.7325813153,5.69070298109,0.975000023842,0.801785947669,0.597611323622,0,0.597611323622,-0.801785947669,0,0,0,1,2.7242238676,0.687549877625,0,-0,0.640518594668
9.81558616324,5.7487437534,0.975000023842,0.836081948645,0.548604570843,0,0.548604570843,-0.836081948645,0,0,0,1,2.82550829893,0.581805962799,0,-0,0.580694312162
9.90175228422,5.80172275896,0.975000023842,0.866905449982,0.498472607865,0,0.498472607865,-0.866905449982,0,0,0,1,2.9266585606,0.581805962799,0,-0,0.521835991196
9.99088565075,5.84954135791,0.975000023842,0.894726595986,0.446614283734,0,0.446614283734,-0.894726595986,0,0,0,1,3.02780882226,0.5818059628,0,-0,0.462977670231
10.0822228234,5.89178164739,0.975000023842,0.919763474898,0.39247312041,0,0.39247312041,-0.919763474898,0,0,0,1,3.12844043342,0.507009947722,0,-0,0.403318920786
10.1766156539,5.92792386511,0.975000023842,0.948591888386,0.316501863008,0,0.316501863008,-0.948591888386,0,0,0,1,3.22951598118,0.872763514959,0,-0,0.322039491912
10.2738615454,5.95566592999,0.975000023842,0.972804150439,0.231629196968,0,0.231629196968,-0.972804150439,0,0,0,1,3.33064157422,0.872763514958,0,-0,0.233752092892
10.3731747775,5.97472550749,0.975000023842,0.989438654291,0.144952231424,0,0.144952231424,-0.989438654291,0,0,0,1,3.43176716726,0.872763514959,0,-0,0.145464693872
10.4738009446,5.98495421476,0.975000023842,0.998379045143,0.0569146924751,0,0.0569146924751,-0.998379045143,0,0,0,1,3.53291187532,0.910629603322,0,-0,0.0569454644771
10.5743082455,5.98628934423,0.975000023842,0.999539106523,-0.0303574460697,0,-0.0303574460697,-0.999539106523,0,0,0,1,3.63342804361,0.912916285699,-0,-0,-0.0303621107793
10.6751726224,5.97873702719,0.975000023842,0.992939665708,-0.118620488383,0,-0.118620488383,-0.992939665708,0,0,0,1,3.73457476881,0.872763514959,-0,-0,-0.118900445948
10.7749570597,5.96232204513,0.975000023842,0.978613268271,-0.20570870464,0,-0.20570870464,-0.978613268271,0,0,0,1,3.83570036185,0.872763514958,-0,-0,-0.207187844968
10.8729055023,5.93717272806,0.975000023842,0.95666386191,-0.29119453174,0,-0.29119453174,-0.95666386191,0,0,0,1,3.9368259549,0.872763514958,-0,-0,-0.295475243988
10.9681017091,5.90351777058,0.975000023842,0.929134039998,-0.369743067166,0,-0.369743067166,-0.929134039998,0,0,0,1,4.03779611851,0.41073878732,-0,-0,-0.378732476124
11.0617244498,5.86629225275,0.975000023842,0.933617944385,-0.358270196811,0,0.358270196811,0.933617944385,0,0,0,1,4.13854807515,0.290891740209,-0,-0,-0.36641443767
11.1566970471,5.83144148278,0.975000023842,0.943755745508,-0.33064345271,0,0.33064345271,0.943755745508,0,0,0,1,4.23971314029,0.290891740207,-0,-0,-0.336985293842
11.252654001,5.79940036221,0.975000023842,0.95307624283,-0.302730367412,0,0.302730367412,0.95307624283,0,0,0,1,4.34087820544,0.290891740208,-0,-0,-0.307556150013
11.349632662,5.77016416414,0.975000023842,0.961656192003,-0.274257850175,0,0.274257850175,0.961656192003,0,0,0,1,4.44216796782,0.320430009457,-0,-0,-0.277817876042
11.4463714929,5.7430379213,0.975000023842,0.958907439427,-0.283719091024,0,-0.283719091024,-0.958907439427,0,0,0,1,4.54263803525,0.581340618769,-0,-0,-0.287670363259
11.5424804461,5.71149749966,0.975000023842,0.940557137774,-0.339635496645,0,-0.339635496645,-0.940557137774,0,0,0,1,4.64379004503,0.581806128716,-0,-0,-0.346529330566
11.6365659812,5.67435873953,0.975000023842,0.918949579516,-0.394375037631,0,-0.394375037631,-0.918949579516,0,0,0,1,4.74494030668,0.581806128717,-0,-0,-0.405387668315
11.7283039292,5.63174976944,0.975000023842,0.894159419576,-0.447748738003,0,-0.447748738003,-0.894159419576,0,0,0,1,4.84609056833,0.581806128716,-0,-0,-0.464246006063
11.817406409,5.58381437688,0.975000023842,0.868891783372,-0.495002089681,0,-0.495002089681,-0.868891783372,0,0,0,1,4.94726889487,0.28013016964,-0,-0,-0.517837236627
11.9045422764,5.53359391403,0.975000023842,0.866025403784,-0.5,0,-0.5,-0.866025403784,0,0,0,1,5.04784102956,3.31997423947e-13,-0,-0,-0.523598775598
11.9921580665,5.48300891403,0.975000023842,0.866025403784,-0.5,0,-0.5,-0.866025403784,0,0,0,1,5.14901102956,1.15765211486e-12,-0,-0,-0.523598775598
12.0797738566,5.43242391403,0.975000023842,0.866025403784,-0.5,0,0.5,0.866025403784,0,0,0,1,5.25018102956,1.6748198788e-13,-0,-0,-0.523598775598
12.1664443773,5.38238486959,0.975000023842,0.866046269355,-0.49996385803,0,0.49996385803,0.866046269355,0,0,0,1,5.35025942444,0.0083770931047,-0,-0,-0.523557042949
12.2538461911,5.33345477905,0.975000023842,0.887955373981,-0.459929618332,0,0.459929618332,0.887955373981,0,0,0,1,5.45042544072,0.873155547367,-0,-0,-0.477915934273
12.3456063462,5.29095209808,0.975000023842,0.925050708612,-0.379843634271,0,0.379843634271,0.925050708612,0,0,0,1,5.55155112468,0.872764619928,-0,-0,-0.389627255842
12.4407566123,5.25670574937,0.975000023842,0.954939710129,-0.296799848413,0,0.296799848413,0.954939710129,0,0,0,1,5.65267671761,0.872764619928,-0,-0,-0.301339745071
12.5385558846,5.23098245481,0.975000023842,0.977390091828,-0.211444102298,0,0.211444102298,0.977390091828,0,0,0,1,5.75380231055,0.872766295317,-0,-0,-0.21305223287
12.6378165817,5.21416398829,0.975000023842,0.992609541348,-0.121351960945,0,0.121351960945,0.992609541348,0,0,0,1,5.85447776331,1.22372792723,-0,-0,-0.121651796384
12.7386189172,5.20931086839,0.975000023842,0.999671263639,0.0256391234992,0,-0.0256391234992,0.999671263639,0,0,0,1,5.95539685776,1.45490390956,0,-0,0.0256419333727
12.839168678,5.21931976543,0.975000023842,0.9851092802,0.171929363587,0,-0.171929363587,0.9851092802,0,0,0,1,6.05644354211,1.45490390956,0,-0,0.172787863236
12.9371928625,5.24397208866,0.975000023842,0.94924251875,0.314545132845,0,-0.314545132845,0.94924251875,0,0,0,1,6.15752013577,1.45490390956,0,-0,0.319977426368
13.0300822143,5.28256194519,0.975000023842,0.891618882365,0.452786670088,0,-0.452786670088,0.891618882365,0,0,0,1,6.25810646041,1.4391391978,0,-0,0.46988827276
13.1196440545,5.32921260007,0.975000023842,0.907374448863,0.420323220333,0,0.420323220333,-0.907374448863,0,0,0,1,6.35908966105,1.45490253766,0,-0,0.433801505631
13.2142051879,5.36483035549,0.975000023842,0.959194859964,0.282745858711,0,0.282745858711,-0.959194859964,0,0,0,1,6.4601363456,1.45490390956,0,-0,0.286655576686
13.3129665669,5.38619908123,0.975000023842,0.990284302573,0.139057542328,0,0.139057542328,-0.990284302573,0,0,0,1,6.56118302994,1.45490390956,0,-0,0.139509646823
13.4137937013,5.39285693403,0.975000023842,0.999970830591,-0.00763792948486,0,-0.00763792948486,-0.999970830591,0,0,0,1,6.66222974211,1.4556509919,-0,-0,-0.00763800375036
13.5150284607,5.38497673877,0.975000023842,0.991981717564,-0.126381454407,0,-0.126381454407,-0.991981717564,0,0,0,1,6.7637707387,0.411260893592,-0,-0,-0.126720328932
13.6143070323,5.37193905512,0.975000023842,0.991444861374,-0.13052619222,0,0.13052619222,0.991444861374,0,0,0,1,6.86390173276,7.98284652153e-13,-0,-0,-0.1308996939
13.7146115089,5.35873372025,0.975000023842,0.991444861374,-0.13052619222,0,0.13052619222,0.991444861374,0,0,0,1,6.96507173276,5.67976101009e-13,-0,-0,-0.1308996939
13.8149159855,5.34552838539,0.975000023842,0.991444861374,-0.13052619222,0,-0.13052619222,-0.991444861374,0,0,0,1,7.06624173276,4.45758115411e-13,-0,-0,-0.1308996939
13.9144643966,5.33242533933,0.975000023842,0.991493126096,-0.130159060014,0,0.130159060014,0.991493126096,0,0,0,1,7.16664878412,0.0399849365586,-0,-0,-0.130529402741
14.0151392027,5.32074060788,0.975000023842,0.995995942998,-0.0893984425601,0,0.0893984425601,0.995995942998,0,0,0,1,7.2679994108,0.581805737024,-0,-0,-0.0895179528123
14.1161069095,5.3146662666,0.975000023842,0.999530029604,-0.0306548514911,0,0.0306548514911,0.999530029604,0,0,0,1,7.36914967248,0.581805737024,-0,-0,-0.030659654685
14.2172570946,5.31454180067,0.975000023842,0.999602444599,0.0281949065023,0,-0.0281949065023,0.999602444599,0,0,0,1,7.47029993416,0.581805737025,0,-0,0.0281986434424
14.3182407502,5.32036780916,0.975000023842,0.996211417037,0.0869644327547,0,-0.0869644327547,0.996211417037,0,0,0,1,7.57145150892,0.586270108897,0,-0,0.0870744234458
14.418081958,5.33135241541,0.975000023842,0.994139416942,0.108105595059,0,0.108105595059,-0.994139416942,0,-0.005381193012,0,0.999985516071,7.67189516653,0.752489898443,-0.000436734158831,-0.00267484569047,0.108317862749
14.5191405037,5.33790622122,0.975000023842,0.999788113967,0.0205846343362,0,0.0205846343362,-0.999788113967,0,-0.0111502166837,0,0.999937772751,7.77316600154,0.872764873306,-0.000172155122784,-0.00557408601097,0.0205865681299
14.6202380373,5.33552415722,0.975000023842,0.997709132178,-0.0676497418162,0,-0.0676497418162,-0.997709132178,0,0.0164227485657,0,0.999865174294,7.87429159444,0.872764873306,-0.000833634671216,0.00819306817637,-0.0677048631045
14.7207317815,5.32423730966,0.975000023842,0.987858368096,-0.155357151693,0,-0.155357151693,-0.987858368096,0,-0.00587612530217,0,0.999982774258,7.97541718735,0.872764873306,0.000686074866094,-0.00290241239495,-0.155989980107
14.8192145987,5.30420129532,0.975000023842,0.969860987354,-0.243658911615,0,-0.243658911615,-0.969860987354,0,-0.0118914293125,0,0.999929308891,8.07591747172,0.81972937868,0.0021842668454,-0.00576669765583,-0.246142986339
14.9152667856,5.27276537961,0.975000023842,0.920149918743,-0.391566248593,0,-0.391566248593,-0.920149918743,0,-0.0122162345797,0,0.999925374985,8.17698299208,1.746125002,0.00363748980232,-0.00562055995804,-0.402343366634
15.0043462438,5.22518042653,0.975000023842,0.837060642459,-0.54711011766,0,-0.54711011766,-0.837060642459,0,0,0,1,8.2779754553,1.746125002,-0,-0,-0.578907909982
15.0836841984,5.16268982203,0.975000023842,0.728232993774,-0.685329633665,0,-0.685329633665,-0.728232993774,0,-0.0122162345797,0,0.999925374985,8.37896845852,1.69695484875,0.00660849881557,-0.00444824261634,-0.755070949303
15.1516329355,5.08791028204,0.975000023842,0.615627104384,-0.788037605922,0,-0.788037605922,-0.615627104384,0,-0.0122162345797,0,0.999925374985,8.48000810651,1.45490243021,0.00779299776708,-0.00376040134797,-0.907629480136
15.2078185053,5.00392448436,0.975000023842,0.493435963243,-0.869782127994,0,-0.869782127994,-0.493435963243,0,0,0,1,8.5810547911,1.45490243021,-0,-0,-1.05476060798
15.2510833024,4.91260860515,0.975000023842,0.36058026866,-0.932728186479,0,-0.932728186479,-0.36058026866,0,-0.0122162345797,0,0.999925374985,8.68210147569,1.45490243022,0.00988485421409,-0.0022024940632,-1.20191727408
15.2804974182,4.81589908058,0.975000023842,0.219298397558,-0.975657835939,0,-0.975657835939,-0.219298397558,0,0.00613497104496,0,0.999981164932,8.78318521499,1.54622760427,-0.00544739440368,0.000672695978991,-1.34970285377
15.2961271685,4.71664852518,0.975000023842,0.108689953913,-0.994075698284,0,-0.994075698284,-0.108689953913,0,0.0184556413442,0,0.999829649925,8.8836589023,0.620833541859,-0.0174480663281,0.00100298041544,-1.46189997585
15.3041400095,4.61580590496,0.975000023842,0.0498318046386,-0.998757623874,0,-0.998757623874,-0.0498318046386,0,0.00581589806825,0,0.999983012676,8.98481936727,0.581805737025,-0.00567084695841,0.000144908413711,-1.52094428616
15.3062056882,4.514676738,0.975000023842,-0.00900572487662,-0.999959447637,0,-0.999959447637,0.00900572487662,0,0.00581589806825,0,0.999983012676,9.08596962895,0.581805737025,-0.00584212032996,-2.61881879362e-05,-1.57980209691
15.3023189355,4.41360117918,0.975000023842,-0.0678120648716,-0.997698112586,0,-0.997698112586,0.0678120648716,0,0.00581579143181,0,0.999983012676,9.18711989063,0.581805737026,-0.00601348525912,-0.000197190304461,-1.63865987863
15.292331528,4.31240362036,0.975000023842,-0.129644339157,-0.991560560593,0,-0.991560560593,0.129644339157,0,0.0246398970485,0,0.99969637394,9.28880909468,0.746391720333,-0.0262540824321,-0.00159717850365,-1.70078564267
15.2726085228,4.21289047599,0.975000023842,-0.265738383225,-0.964045181348,0,-0.964045181348,0.265738383225,0,0.0126339579001,0,0.999920129776,9.39025791348,1.45490243021,-0.0143840361471,-0.00167864358818,-1.83975401711
15.2386686481,4.11771423224,0.975000023842,-0.40421053155,-0.914665975197,0,-0.914665975197,0.40421053155,0,0.0126339588314,0,0.999920129776,9.49130459807,1.45490243021,-0.0154761931645,-0.00255333729915,-1.98689211212
15.191141243,4.02854260991,0.975000023842,-0.533946541578,-0.845518237968,0,-0.845518237968,0.533946541578,0,0.0702645853162,0,0.997528374195,9.59235128266,1.45490243021,-0.0491252373002,-0.0187700977603,-2.13359650181
15.1308705569,3.94711740234,0.975003971176,-0.65409947071,-0.756407788242,0.00106785027899,-0.747831567071,0.646893935629,0.149252079844,0.0909930169582,0,0.995851576328,9.69365587304,1.65832159482,-0.055575397373,-0.0303303003732,-2.28296772603
15.0601350116,3.87612407321,0.998352740143,-0.682296001745,-0.591318927558,0.42990009527,-0.641211041805,0.766490135526,0.0366233806362,0.15057913959,0,0.988597929478,9.79387348704,1.19070328928,-0.154475635379,-0.284555048342,-2.45531110919
14.9791157924,3.81573872499,1.04652856969,-0.761568427537,-0.484845452225,0.430044669348,-0.537041830786,0.843555612859,6.91848748528e-14,0.219752058387,0,0.97555577755,9.89492052636,1.18583622503,-0.150164863468,-0.319775390584,-2.59371578142
14.8901189566,3.76788482613,1.09470474294,-0.824424440358,-0.367948263354,0.430044669348,-0.407559992734,0.913178434,4.35298887317e-14,0.28753298521,0,0.957770705223,9.99596721072,1.18583622503,-0.132254250731,-0.357980012454,-2.73259737332
14.7950677367,3.73359637311,1.14288091618,-0.869462263733,-0.243098651493,0.430044669291,-0.269269662629,0.963064820657,-1.19108475319e-07,0.350159436464,0,0.936690092087,10.0970138951,1.18583624128,-0.0992352463768,-0.395681699013,-2.87328071063
14.6969571688,3.71365105864,1.17901005955,-0.95450024633,-0.137291761538,0.264726749629,0.248410001999,0.125092807271,0.960543731683,0.396629840136,0,0.917978584766,10.1971313216,6.95231234671,-0.0529892677684,-0.336279106983,-2.99614811398
14.5978032879,3.70045398856,1.22395710685,-0.895136382477,-0.117846940434,0.429933663949,0.393336583679,0.245098041556,0.886122611135,0.425039112568,0,0.905175030231,10.2971595914,2.5172034111e-13,-0.0556786067413,-0.440076345141,-3.01089801464
14.4974988113,3.68724865369,1.27213330881,-0.895136382477,-0.117846940434,0.429933663949,-0.277906088354,-0.606572618602,-0.744874395062,0.442262142897,0,0.896885871887,10.3983295914,3.34839497682e-13,-0.0575651906377,-0.449559813918,-3.01044431164
14.3971943347,3.67404331883,1.32030951077,-0.895136382477,-0.117846940434,0.429933663949,0.44317618194,-0.1309124898,0.88682399143,0.447213441133,-1.34967015342e-09,0.894427239895,10.4994995914,3.78744991174e-13,-0.0581131958059,-0.452306387037,-3.0103088053
14.2977696809,3.66095381097,1.36717370494,-0.928647864782,-0.122259228197,0.350236811823,-0.347239865102,-0.0457198037874,-0.936661185075,0.447213470936,-1.34967015342e-09,0.894427239895,10.599782177,6.71433502339,-0.0563566680569,-0.409174198434,-3.00847495801
14.1971508748,3.64770703546,1.40210477627,-0.895138902402,-0.117847272217,0.429928326397,0.42624960539,0.056121651453,0.902863020698,0.447213411331,-2.76945288924e-09,0.8944272995,10.7012692265,0.00285647144297,-0.0581130811967,-0.45230340259,-3.01030866579
