x,y,z,tx,ty,tz,qx,qy,qz,nx,ny,nz,s,kappa,psi,theta,phi
7.4597401619,4.2068901062,1,0.999425279324,0.027916480965,-0.0192296941664,-0.0279319647588,0.999609682295,-0.000537034695548,0,0,1,0,0.244160589447,0.00013426044279,0.00961566213472,0.0279233365028
7.56534931126,4.21159851522,0.997965886368,0.997679760009,0.0653051824309,-0.0192439501295,-0.06532171756,0.997864229113,-0.000231240208483,0,0,1,0.105714055574,0.476660159874,0.000314583769184,0.00962279251453,0.0653592705492
7.66861670467,4.22121892389,0.995968995717,0.992418485662,0.121387814276,-0.0192496197692,-0.121411380914,0.992602273545,-5.60196847554e-05,0,0,1,0.209428600376,0.553645826611,0.000586458280962,0.00962562982535,0.121702112224
7.7695421661,4.23640844269,0.994003523015,0.984210827174,0.175949848472,-0.0192535320211,-0.175983419334,0.984393129603,-5.01061887279e-05,0,0,1,0.31149069053,0.542008688103,0.000853752730871,0.0096275892302,0.176891394624
7.86920509052,4.25708241761,0.992043096138,0.972994854241,0.230022280625,-0.0192552339974,-0.230065244941,0.973175206628,-1.65664769125e-05,0,0,1,0.413275324646,0.541603259285,0.00112257039824,0.0096284442725,0.232128192159
7.9674190087,4.28317688576,0.990085731616,0.958849848604,0.283259965007,-0.0192551306699,-0.283312143816,0.959027751848,1.87598738423e-05,0,0,1,0.514896656034,0.542149044838,0.00139236026908,0.00962839749543,0.287226253619
8.06399633814,4.31462844874,0.988129462138,0.941745324724,0.335775295973,-0.0192534146403,-0.335836854576,0.941920169466,3.82279457346e-05,0,0,1,0.616466244868,0.547177173021,0.00166489044673,0.00962754527716,0.342470236339
8.15763394906,4.35097947911,0.986195020003,0.921471916952,0.387967629919,-0.0192516078111,-0.388039118165,0.921642903838,2.40481133301e-05,0,0,1,0.716912248211,0.570004773185,0.00194379415692,0.00962664889749,0.398475435511
8.24980657393,4.39299016513,0.984244352929,0.897273555369,0.44105508803,-0.0192503547636,-0.441136497982,0.897440020153,1.93836798503e-05,0,0,1,0.8182073148,0.573866194871,0.00223781365592,0.00962603108894,0.456832715788
8.33959227978,4.44038842627,0.982289300039,0.870458393696,0.491865462197,-0.0192497257472,-0.491956571725,0.870619739915,2.78340726344e-06,0,0,1,0.919735971509,0.560147342027,0.00253131198726,0.00962572660499,0.514299163403
8.42631361715,4.49268738086,0.980339253104,0.841205833568,0.540372302257,-0.0192489096955,-0.540470239734,0.841363121132,0.000135502003445,0,0,1,1.02100675212,0.559402255808,0.00282501233543,0.00962532983033,0.570957734707
8.51007386446,4.54995769516,0.978393185585,0.808296568663,0.5884722165,-0.018897288019,-0.588093148952,0.808488621207,0.0221945383966,0,0,1,1.12247432296,0.61338869374,0.00307523302296,0.00944948441843,0.629254334204
8.58912082824,4.6116052626,0.976667626968,0.766918946667,0.641582248131,-0.0144065307049,-0.636420686496,0.763251146185,0.11142889054,0,0,1,1.22271825072,0.673268511936,0.00261574870523,0.00720364496352,0.696617799707
8.66439967337,4.67839090118,0.9756050143,0.731964276968,0.681307106168,-0.00699459268861,-0.671762285059,0.723349230717,0.159691336001,0,0,1,1.32335237041,0.380557666449,0.00137576360428,0.00349734052096,0.749562375838
8.73812000295,4.74917655447,0.975148311598,0.712568097438,0.701598615645,-0.0024675976048,-0.693411182446,0.704779825078,0.149887725387,0,0,1,1.42555459985,0.200432321809,0.000505459247388,0.00123380076047,0.777640531584
8.8095926701,4.82067778541,0.975016116106,0.703026987321,0.711163013505,-0.000472567028355,-0.69501231076,0.687201565449,0.211451877116,0,0,1,1.52665241475,0.0504548807906,9.86690818534e-05,0.000236283527995,0.791151200091
8.88072205539,4.89223454576,0.975000216676,0.711191246761,0.702998584904,-1.24313647281e-05,0.702996692744,-0.711189291299,0.00233279492351,0,0,1,1.62754720849,0.294583792072,2.55355204431e-06,6.2156823643e-06,0.779605044215
8.95383786797,4.96190857577,0.975000023842,0.737744496665,0.675080037951,-3.72383353835e-11,0.675080037951,-0.737744496665,3.24733004791e-08,0,0,1,1.72854420105,0.417155563838,7.23318557825e-12,1.86191676918e-11,0.741073186887
9.03003218296,5.02871714467,0.975000023842,0.765728436655,0.643164023634,0,0.643164023634,-0.765728436655,0,0,0,1,1.82988007089,0.419154758407,0,-0,0.69862317567
9.10898654727,5.09222385994,0.975000023842,0.792347578418,0.610069926299,0,0.610069926299,-0.792347578418,0,0,0,1,1.93120575632,0.419154756273,0,-0,0.656148839978
9.19056629729,5.15232077263,0.975000023842,0.817537485211,0.575875386065,0,0.575875386065,-0.817537485211,0,0,0,1,2.03253144174,0.419154756273,0,-0,0.613674504294
9.27462427961,5.20889948006,0.975000023842,0.841252719533,0.54064208297,0,0.54064208297,-0.841252719533,0,0,0,1,2.13385712717,0.419154756273,0,-0,0.571200168609
9.36100887064,5.26185792566,0.975000023842,0.863450503895,0.504433570774,0,0.504433570774,-0.863450503895,0,0,0,1,2.2351828126,0.419154756273,0,-0,0.528725832925
9.44956425,5.31110058311,0.975000023842,0.884090797977,0.467315162319,0,0.467315162319,-0.884090797977,0,0,0,1,2.33650849803,0.419154756273,0,-0,0.486251497241
9.5401306817,5.3565386286,0.975000023842,0.903136370857,0.429353811716,0,0.429353811716,-0.903136370857,0,0,0,1,2.43783418345,0.419154756273,0,-0,0.443777161556
9.63254603701,5.3980903907,0.975000023842,0.920560202858,0.390600707776,0,0.390600707776,-0.920560202858,0,0,0,1,2.53916111389,0.420493537968,0,-0,0.401284048323
9.7256128697,5.43523347525,0.975000023842,0.93688287865,0.349643349275,0,0.349643349275,-0.93688287865,0,0,0,1,2.63936612412,0.481214655252,0,-0,0.357190398565
9.82131599618,5.46816408074,0.975000023842,0.953689583477,0.300792583632,0,0.300792583632,-0.953689583477,0,0,0,1,2.74057636667,0.480161567006,0,-0,0.30552361609
9.9177319283,5.4963838298,0.975000023842,0.964553867033,0.263886031444,0,0.263886031444,-0.964553867033,0,0,0,1,2.84103723569,0.301496392354,0,-0,0.267048834062
10.0150622073,5.5215347409,0.975000023842,0.971603511665,0.236614911027,0,0.236614911027,-0.971603511665,0,0,0,1,2.94156460283,0.290892893926,0,-0,0.238880341695
10.1130125632,5.54365011067,0.975000023842,0.979597560736,0.20096919913,0,0.20096919913,-0.979597560736,0,0,0,1,3.0419805468,0.458834341371,0,-0,0.202347205559
10.2127201607,5.56147411532,0.975000023842,0.988644339784,0.150274313882,0,0.150274313882,-0.988644339784,0,0,0,1,3.14326875017,0.494817773335,0,-0,0.150845731606
10.3123380047,5.57427141052,0.975000023842,0.994396177059,0.105717751821,0,0.105717751821,-0.994396177059,0,0,0,1,3.24370522558,0.421666158353,0,-0,0.105915670053
10.4133039425,5.58283808167,0.975000023842,0.997990793393,0.0633591059213,0,0.0633591059213,-0.997990793393,0,0,0,1,3.34503394042,0.419154596192,0,-0,0.0634015738988
10.5144996061,5.58710831722,0.975000023842,0.999780682249,0.020942478417,0,0.020942478417,-0.999780682249,0,0,0,1,3.44631966123,0.419154596192,0,-0,0.0209440095704
10.6158652516,5.58707775266,0.975000023842,0.999767870975,-0.0215453978104,0,-0.0215453978104,-0.999767870975,0,0,0,1,3.54768531138,0.419154596192,-0,-0,-0.0215470650693
10.7170982134,5.58274393421,0.975000023842,0.99795133105,-0.0639776590385,0,-0.0639776590385,-0.99795133105,0,0,0,1,3.64901099687,0.419154596192,-0,-0,-0.0640213845534
10.8180558527,5.57411551599,0.975000023842,0.994334689897,-0.106294517582,0,-0.106294517582,-0.994334689897,0,0,0,1,3.75033668235,0.419154596192,-0,-0,-0.106495704037
10.9185560625,5.56120806193,0.975000023842,0.988924471201,-0.148419642435,0,-0.148419642435,-0.988924471201,0,0,0,1,3.85166236783,0.419154596192,-0,-0,-0.148970023522
11.0184175609,5.54404485444,0.975000023842,0.981730433896,-0.19027704844,0,-0.19027704844,-0.981730433896,0,0,0,1,3.95298805332,0.419154596192,-0,-0,-0.191444343006
11.1174602179,5.52265685245,0.975000023842,0.972765554562,-0.23179123335,0,-0.23179123335,-0.972765554562,0,0,0,1,4.0543137388,0.419154596192,-0,-0,-0.23391866249
11.2155053808,5.49708263558,0.975000023842,0.96204600395,-0.272887314259,0,-0.272887314259,-0.96204600395,0,0,0,1,4.15563942431,0.419154610126,-0,-0,-0.276392982223
11.3123762991,5.46736855525,0.975000023842,0.949596580217,-0.313474615944,0,-0.313474615944,-0.949596580217,0,0,0,1,4.25696514356,0.418055350656,-0,-0,-0.318849877659
11.407915102,5.43360595406,0.975000023842,0.935965310983,-0.352092227457,0,-0.352092227457,-0.935965310983,0,0,0,1,4.35829419222,0.371277992197,-0,-0,-0.359805535019
11.5022061815,5.39643216316,0.975000023842,0.925989739367,-0.377548675786,0,-0.377548675786,-0.925989739367,0,0,0,1,4.45964851333,0.129038562175,-0,-0,-0.387147615474
11.5960612553,5.35811980017,0.975000023842,0.927950254791,-0.372704071125,0,0.372704071125,0.927950254791,0,0,0,1,4.56102213921,0.223102061807,-0,-0,-0.381921347473
11.6906695385,5.32178947484,0.975000023842,0.939909539158,-0.341423575927,0,0.341423575927,0.939909539158,0,0,0,1,4.66236620557,0.39814763777,-0,-0,-0.348431069921
11.7866066577,5.28918266262,0.975000023842,0.953390331896,-0.301739747212,0,0.301739747212,0.953390331896,0,0,0,1,4.76369307784,0.41898151967,-0,-0,-0.30651692895
11.8838370094,5.26066681069,0.975000023842,0.965342281334,-0.26098712587,0,0.26098712587,0.965342281334,0,0,0,1,4.86501876609,0.419154596192,-0,-0,-0.26404462744
11.9821904888,5.23630520926,0.975000023842,0.975553558542,-0.219761812918,0,0.219761812918,0.975553558542,0,0,0,1,4.96634445158,0.419154596192,-0,-0,-0.221570307956
12.0814896947,5.21614182066,0.975000023842,0.984005135548,-0.178140094352,0,0.178140094352,0.984005135548,0,0,0,1,5.06767013706,0.419154596192,-0,-0,-0.179095988472
12.1815555116,5.20021301554,0.975000023842,0.990681767426,-0.136197047289,0,0.136197047289,0.990681767426,0,0,0,1,5.16899582255,0.419154596192,-0,-0,-0.136621668988
12.282207441,5.18854752623,0.975000023842,0.99557141089,-0.0940083284527,0,0.0940083284527,0.99557141089,0,0,0,1,5.27032150803,0.419154596192,-0,-0,-0.094147349504
12.3832639274,5.18116639488,0.975000023842,0.998665246018,-0.0516500377126,0,0.0516500377126,0.998665246018,0,0,0,1,5.37164719351,0.419154596192,-0,-0,-0.0516730300199
12.4845426854,5.17808293557,0.975000023842,0.999957692161,-0.00919858080961,0,0.00919858080961,0.999957692161,0,0,0,1,5.472972879,0.419154596192,-0,-0,-0.00919871053583
12.5858610287,5.17930271023,0.975000023842,0.999446418008,0.0332694684623,0,-0.0332694684623,0.999446418008,0,0,0,1,5.57429856448,0.419154596199,0,-0,0.0332756089483
12.6870361997,5.18482351864,0.975000023842,0.997132345842,0.0756775057464,0,-0.0756775057464,0.997132345842,0,0,0,1,5.67562425007,0.419154304169,0,-0,0.0757499277971
12.787885848,5.19463477203,0.975000023842,0.99302424559,0.117910337419,0,-0.117910337419,0.99302424559,0,0,0,1,5.77695002297,0.417087700358,0,-0,0.118185275919
12.8882403158,5.20866410178,0.975000023842,0.987416762293,0.158139614085,0,-0.158139614085,0.987416762293,0,0,0,1,5.87828038027,0.367060460788,0,-0,0.158806273575
12.9880535757,5.22628926037,0.975000023842,0.982475517542,0.186391677472,0,-0.186391677472,0.982475517542,0,0,0,1,5.97963783214,0.176090693694,0,-0,0.187488173442
13.0875727195,5.24566895863,0.975000023842,0.981367748866,0.192138859907,0,0.192138859907,-0.981367748866,0,0,0,1,6.08102635561,0.0465325612701,0,-0,0.193341151759
13.1871620257,5.26470923713,0.975000023842,0.983293124716,0.182029203388,0,0.182029203388,-0.983293124716,0,0,0,1,6.1824194625,0.132695939047,0,-0,0.183049739713
13.2869857544,5.28247224251,0.975000023842,0.985744404222,0.16824972376,0,0.16824972376,-0.985744404222,0,0,0,1,6.28381128253,0.139617065842,0,-0,0.169053810747
13.3870503497,5.29882344313,0.975000023842,0.988027601555,0.154277213372,0,0.154277213372,-0.988027601555,0,0,0,1,6.38520302282,0.1396365745,0,-0,0.154895866517
13.4873364103,5.31375632765,0.975000023842,0.990112778397,0.140273611401,0,0.140273611401,-0.990112778397,0,0,0,1,6.48659476306,0.1396365745,0,-0,0.140737752976
13.5878238342,5.32726790153,0.975000023842,0.99199948829,0.126241891749,0,0.126241891749,-0.99199948829,0,0,0,1,6.5879865033,0.1396365745,0,-0,0.126579639436
13.6884924788,5.3393554564,0.975000023842,0.993687353046,0.112184867057,0,0.112184867057,-0.993687353046,0,0,0,1,6.68937824354,0.1396365745,0,-0,0.112421525895
13.7893221652,5.35001656932,0.975000023842,0.995176034334,0.0981053550393,0,0.0981053550393,-0.995176034334,0,0,0,1,6.79076998378,0.1396365745,0,-0,0.0982634123548
13.8902926822,5.35924910327,0.975000023842,0.99646523375,0.0840061779183,0,0.0840061779183,-0.99646523375,0,0,0,1,6.89216172402,0.1396365745,0,-0,0.0841052988143
13.9913837987,5.36705120768,0.975000023842,0.997554698827,0.0698900768965,0,0.0698900768965,-0.997554698827,0,0,0,1,6.99355347254,0.139648355168,0,-0,0.069947100105
14.0926402115,5.37342177084,0.975000023842,0.998453535856,0.0555925960532,0,0.0555925960532,-0.998453535856,0,0,0,1,7.0950100899,0.146392770426,0,-0,0.0556212711108
14.1938866974,5.37824306951,0.975000023842,0.999247133417,0.0387964735142,0,0.0387964735142,-0.999247133417,0,0,0,1,7.19637130445,0.187141524417,0,-0,0.0388062126367
14.2958434894,5.38118376819,0.975000023842,0.999833409155,0.0182525049833,0,0.0182525049833,-0.999833409155,0,0,0,1,7.2983704964,0.229250735753,0,-0,0.0182535186176
14.397069476,5.38152108905,0.975000023842,0.999861708586,-0.0166302045342,0,-0.0166302045342,-0.999861708586,0,0,0,1,7.39959704497,0.534629706182,-0,-0,-0.0166309711815
14.4988846905,5.3757885848,0.975000023842,0.993907117551,-0.110220876798,0,-0.110220876798,-0.993907117551,0,0,0,1,7.50157351044,1.37285447216,-0,-0,-0.110445278075
14.5984610327,5.35656375369,0.975000023842,0.962276304454,-0.272074096316,0,-0.272074096316,-0.962276304454,0,0,0,1,7.60298870682,1.63848035007,-0,-0,-0.275547782964
14.6931721433,5.32196296552,0.975000023842,0.914099702023,-0.405489500187,0,-0.405489500187,-0.914099702023,0,-0.0114353103563,0,0.999934673309,7.7038222777,1.21843407119,0.00352983272358,-0.00522664943635,-0.417523491465
14.7830814413,5.27530503461,0.975000023842,0.856851584752,-0.515563150068,0,-0.515563150068,-0.856851584752,0,1.11154619731e-07,0,1,7.80511711662,1.31155942804,-4.40849016837e-08,4.76215060344e-08,-0.541664751147
14.8651734772,5.21811945508,0.975000023842,0.782638598998,-0.622476363695,0,-0.622476363695,-0.782638598998,0,-0.025393627584,0,0.999677479267,7.90516357011,1.10171756831,0.0123391819662,-0.00993815917762,-0.67196417428
14.9415459811,5.15167426916,0.975000023842,0.730832663188,-0.682556677806,0,-0.682556677806,-0.730832663188,0,0,0,1,8.00639460331,0.589586770233,-0,-0,-0.751255253535
15.01354638,5.08043898193,0.975000023842,0.690605758404,-0.723231419712,0,-0.723231419712,-0.690605758404,0,0,0,1,8.1076789732,0.559162384088,-0,-0,-0.808470036598
15.0813809455,5.00524813394,0.975000023842,0.648562098357,-0.761161746658,0,-0.761161746658,-0.648562098357,0,0,0,1,8.2089468946,0.559159152612,-0,-0,-0.865102502178
15.144850793,4.92633824645,0.975000023842,0.604438912533,-0.796651492823,0,-0.796651492823,-0.604438912533,0,0,0,1,8.31021481593,0.559159152611,-0,-0,-0.921734955018
15.2037524143,4.84396233432,0.975000023842,0.558377667313,-0.829586873478,0,-0.829586873478,-0.558377667313,0,-1.1115460552e-07,0,1,8.41148273726,0.559159152611,7.56922259667e-08,-3.10331246706e-08,-0.978367407858
15.2578969486,4.75838452585,0.975000023842,0.510526052442,-0.859862285356,0,-0.859862285356,-0.510526052442,0,-1.11154598414e-07,0,1,8.5127506586,0.559159152612,7.94260292592e-08,-2.83736591697e-08,-1.0349998607
15.3071107879,4.66987921579,0.975000023842,0.461037498268,-0.887380654055,0,-0.887380654055,-0.461037498268,0,-0.0114353112876,0,0.999934673309,8.61401857993,0.559159152611,0.00854667357429,-0.00263609009337,-1.09164357851
15.3512361342,4.57873018559,0.975000023842,0.410070683782,-0.912053745293,0,-0.912053745293,-0.410070683782,0,-0.0114353112876,0,0.999934673309,8.71528650126,0.559159152611,0.00891331450047,-0.00234467190176,-1.14827521585
15.3901315743,4.48522917308,0.975000023842,0.357778008593,-0.933806669802,0,-0.933806669802,-0.357778008593,0,0.0109351538122,0,0.999940216541,8.81655492972,0.560107627582,-0.00886618046738,0.00195619818454,-1.20491769166
15.4232365278,4.39086715474,0.975000023842,0.303053389023,-0.952973579593,0,-0.952973579593,-0.303053389023,0,0,0,1,8.91655557197,0.62643221643,-0,-0,-1.26290123327
15.4506562351,4.29322512963,0.975000023842,0.236336417861,-0.971671290917,0,-0.971671290917,-0.236336417861,0,0,0,1,9.01797453181,0.675179346734,-0,-0,-1.33220260762
15.4714429453,4.19476409305,0.975000023842,0.17959250419,-0.983741090145,0,-0.983741090145,-0.17959250419,0,0,0,1,9.11860585419,0.507161084397,-0,-0,-1.39022412197
15.4869192736,4.0945447434,0.975000023842,0.121722453897,-0.992564176372,0,-0.992564176372,-0.121722453897,0,0,0,1,9.22001312603,0.735261002787,-0,-0,-1.44877127043
15.4945261703,3.99344316625,0.975000023842,0.0183845091355,-0.99983099063,0,-0.99983099063,-0.0183845091355,0,0,0,1,9.3214004713,1.28577081778,-0,-0,-1.55241078187
15.4897465616,3.89315756414,0.975000023842,-0.111378332972,-0.993778077311,0,-0.993778077311,0.111378332972,0,0,0,1,9.42179990681,1.18944561385,0,0,-1.68240623199
15.4727381181,3.79330542905,0.975000023842,-0.223432124508,-0.974719490796,0,-0.974719490796,0.223432124508,0,0,0,1,9.52309026187,1.17250507598,0,0,-1.79613052541
15.4434080606,3.69685126609,0.975000023842,-0.370631942714,-0.928779824846,0,-0.928779824846,0.370631942714,0,0,0,1,9.62390523015,2.02381313922,0,0,-1.95048565619
15.3956336178,3.60842248367,0.975000023842,-0.578894817955,-0.815402225742,0,-0.815402225742,0.578894817955,0,0.0109351538122,0,0.999940216541,9.72441416979,2.40409194231,-0.00728214586376,-0.00316520194716,-2.18815745685
15.3282114066,3.53388879641,0.975002096241,-0.754567963713,-0.656221884425,0.000162908474031,-0.656214940322,0.754561076138,0.00441978235229,0.0109351538122,0,0.999940216541,9.82491802593,2.5104832876,-0.00566349989101,-0.00420719761264,-2.42578026725
15.2446501474,3.47863277645,0.975379658653,-0.897922885306,-0.439965890566,0.0128260353574,-0.4337097924,0.889370902872,0.144620928989,0.0440419837832,0,0.999029636383,9.92509642568,2.34510439963,-0.0162877826697,-0.0261955230254,-2.68586287874
15.1508715326,3.44346263576,0.979508085404,-0.957966331137,-0.275025147469,0.0816190949925,-0.161912991765,0.753185892636,0.637569756365,0.0815471187234,0,0.996669530869,10.0252531398,1.67294554662,-0.022728657565,-0.0800963157125,-2.86204678226
15.052434955,3.42127814292,0.994975285362,-0.957972499827,-0.162769245271,0.236209361307,0.137523536239,0.462042721653,0.876130013382,0.164586752653,0,0.986362636089,10.1261585982,2.21666711805,-0.0305392810968,-0.200852293097,-2.97426782874
14.9527838973,3.40955335917,1.03191081613,-0.893399121757,-0.0595400507972,0.445301012345,0.375648318575,0.444675393708,0.81311262134,0.26066839695,0,0.965428411961,10.2264970447,1.81894554834,-0.0199640635947,-0.363268030246,-3.07695502611
14.8527184923,3.40656691299,1.08666017704,-0.887324878765,-0.00550614908086,0.461111962377,-0.458065695613,0.125883714539,-0.879959720054,0.345207512379,0,0.938526332378,10.326607005,1.33044376173,-0.0022782800106,-0.416275315869,-3.13551991076
14.7525389267,3.40641770463,1.13010587314,-0.930304045052,-2.86503554511e-05,0.366789289565,0.366785874396,0.00424334790946,0.93029571446,0.402989774942,0,0.915204465389,10.4267866817,0.506898469105,-1.22103814961e-05,-0.395206861412,-3.14156166531
14.6511380929,3.40641736984,1.17868995131,-0.864882316905,0,0.50197467855,0.50197467855,0,0.864882316905,0.436900645494,0,0.89950978756,10.5281875156,0.993088829145,0,-0.489184882641,3.14159265359
14.5497380504,3.40641736984,1.23804344468,-0.8867616151,0,0.462227041599,-0.462227041599,0,-0.8867616151,0.44721353054,0,0.894427239895,10.629587558,1.5636878358,0,-0.47208480409,3.14159265359
14.4483379682,3.40641736984,1.28176800203,-0.92932650658,0,0.36925904751,0.36925904751,0,0.92932650658,0.447213470936,0,0.8944272995,10.7309876402,0.659262911274,0,-0.421124498411,3.14159265359
14.3469379003,3.40641736984,1.33114068957,-0.862578194294,0,0.505923767705,0.505923767705,0,0.862578194294,0.447213292122,0,0.8944272995,10.8323877081,0.886660310298,0,-0.497191526123,3.14159265359
